***Scan Config Information***,,,,,,,***Reference Scan Information***,,,,,,,,
Scan Config Name:,Column 13,,,,,,Scan Config Name:,Local New Reference,,,,,,,
Scan Config Type:,Slew,Num Section:,1,,,,Scan Config Type:,Slew,Num Section:,1,,,,,
Section Config Type:,Column,,,,,,Section Config Type:,Column,,,,,,,
Start Wavelength (nm):,1600,,,,,,Start Wavelength (nm):,1600,,,,,,,
End Wavelength (nm):,2400,,,,,,End Wavelength (nm):,2400,,,,,,,
Pattern Width (nm):,9,,,,,,Pattern Width (nm):,9,,,,,,,
Exposure (ms):,0.635,,,,,,Exposure (ms):,0.635,,,,,,,
Digital Resolution:,228,,,,,,Digital Resolution:,228,,,,,,,
Num Repeats:,30,,,,,,Num Repeats:,30,,,,,,,
PGA Gain:,32,(FixedPGA),,,,,PGA Gain:,32,(FixedPGA),,,,,,
System Temp (C):,34.89,,,,,,System Temp (C):,34.64,,,,,,,
Humidity (%):,45.66,,,,,,Humidity (%):,45.87,,,,,,,
Lamp ADC:,No Built-In Lamp,,,,,,Lamp ADC:,No Built-In Lamp,,,,,,,
Data Date-Time:,2024/08/12T11:25:47,,,,,,Data Date-Time:,2024/08/12T11:21:46,,,,,,,
Total Measurement Time in sec:,8.8749076,,,,,,,,,,,,,,
,,,,,,,,,,,,,,,
***General Information***,,,,,,,***Calibration Coefficients***,,,,,,,,
Model Name:,NIR-F320,,,,,,Shift Vector Coefficients:,-13.16504,0.115654,-0.000253331,,,,,
Serial Number:,C11FP001,(95UB118G01VC11FP001),,,,,Pixel to Wavelength Coefficients:,2448.50639205426,-0.776432367151677,-0.000271852860897438,,,,,
GUI Version:,3.12.5,Revision:,718,,,,Versions (Cal/Ref/Cfg):,1,3,1,,,,,
TIVA Version:,5.1.1,,,,,,***Lamp Usage ***,,,,,,,,
DLPC Version:,2.3.1,,,,,,Total Time(hh:mm:ss):,10hr 22min 42sec ,,,,,,,
UUID:,DE:67:0C:88:67:70:83:21,,,,,,***Device/Error/Activation Status***,,,,,,,,
Main Board Version:,O,,,,,,Device Status:,0x00000001,Activation Status:,Activated,,,,,
Detector Board Version:,N,,,,,,Error status:,0x00000000,Error Code:,0x00000000000000000000000000000000,,,,,
,,,,,,,,,Error Details:,Not found,,,,,
***Scan Data***,,,,,,,,,,,,,,,
Wavelength (nm),Absorbance (AU),Reference Signal (unitless),Sample Signal (unitless)
1600.78194280149,1.35653206985939,2634862,115938
1604.48382499761,1.34342426517415,2620274,118829
1609.41205604568,1.33234408648421,2595174,120732
1613.10252042165,1.32611073003523,2569634,121272
1618.0155277095,1.31478602923025,2528060,122462
1621.69457426531,1.30857403164552,2497041,122702
1626.59235779295,1.30146274797139,2457948,122775
1630.25998652861,1.29335617397297,2429844,123658
1633.92272191276,1.29050526094436,2402311,123062
1638.79875721153,1.2799886675162,2366711,124210
1642.45007477553,1.27611756831531,2339628,123888
1647.31088631409,1.27030799152912,2300396,123451
1650.95078605793,1.26517610371071,2269377,123234
1655.79637383629,1.25914236233654,2224754,122501
1659.42485575997,1.25524295701825,2189911,121670
1664.25521977811,1.25449389321868,2144973,119379
1667.87228388164,1.25035725866474,2112359,118689
1671.48445463367,1.24758322295155,2077547,117481
1676.29307042293,1.24572374700327,2030830,115332
1679.89382335481,1.24761539589744,1996684,112900
1684.68721538386,1.24366680288286,1950975,111323
1688.27655049558,1.2438856962968,1919608,109478
1693.05471876443,1.2448245938158,1880166,106997
1696.63263605598,1.24496226872663,1849632,105226
1701.39558056462,1.2482320494925,1806972,102028
1704.96208003602,1.24842202747727,1777925,100344
1708.52368615592,1.2544757622735,1750849,97448
1713.26488243569,1.25340320774789,1712997,95577
1716.81507073543,1.25968290130563,1686177,92730
1721.54104325499,1.25853842956399,1644851,90696
1725.07981373458,1.26553049306792,1614137,87581
1729.79056249392,1.26857232617508,1575408,84883
1733.31791515335,1.27500301053219,1544829,82012
1738.01344015249,1.28053911153711,1505295,78901
1741.52937499176,1.27853483249777,1476601,77755
1746.20967623068,1.2855490277193,1442165,74725
1749.7141932498,1.28734269290909,1420479,73298
1753.21381691742,1.28770133713199,1395391,71944
1757.87236992747,1.30690898785547,1361405,67155
1761.36057577493,1.30986263332255,1335752,65443
1766.00390502477,1.32019208502858,1300138,62201
1769.48069305208,1.32062523727752,1274884,60932
1774.10879854171,1.33581716510264,1241875,57314
1777.57416874885,1.33128674803965,1217880,56796
1782.18705047828,1.34038501047546,1187344,54224
1785.64100286526,1.34262752705114,1166330,52990
1789.09006190076,1.34428522724916,1144763,51812
1793.68119540131,1.33922436345099,1115864,51096
1797.11883661664,1.34180483726265,1092263,49719
1801.69474635698,1.33670924931107,1063086,48962
1805.12096975216,1.33865932028935,1042156,47783
1809.68165573229,1.33862875254052,1013208,46459
1813.0964613073,1.34043037362473,992389,45316
1817.64192352722,1.33736826872695,962823,44277
1821.04531128209,1.33277341721773,942319,43795
1824.44380568545,1.33562793974556,923994,42662
1828.9675196765,1.34064300498347,899845,41070
1832.3545962597,1.34303369803967,880556,39969
1836.86308649054,1.33683165797551,852433,39249
1840.23874525359,1.34606387026599,831946,37500
1844.73201172422,1.36187919182626,806431,35050
1848.09625266711,1.37069470579689,789908,33642
1852.57429537753,1.39607396101601,769860,30927
1855.92711850026,1.41003728000967,756044,29411
1859.2750482715,1.43155186551613,743605,27529
1863.73134275304,1.49047499135276,730015,23597
1867.06785470412,1.54604391977495,716412,20376
1871.50892542546,1.63758323035921,699585,16116
1874.83401955638,1.71374828199654,689208,13323
1879.25986651751,1.84571087334535,680800,9712
1882.57354282827,2.03453613243081,678247,6264
1886.98416602918,2.165665929663,671437,4585
1890.28642451979,2.51759434227124,665190,2020
1893.5837896589,2.59081714859659,657945,1688
1897.97266463095,2.78642357039959,648842,1061
1901.2586119499,2.74010955639972,641476,1167
1905.63226316173,3.18796666610211,638215,414
1908.90679266053,2.90883845846165,637989,787
1913.26522011215,NaN,637298,-122
1916.52833179079,2.89315786743242,639604,818
1920.8715354822,3.14911394223058,639985,454
1924.12322934068,2.96724015713752,641721,692
1928.45120927188,3.07294171095502,645854,546
1931.6914853102,2.8599801813259,649065,896
1934.92686799703,2.90213260864084,652959,818
1939.23309969936,3.81733725548158,656655,100
1942.45706456603,3.12014028715394,660660,501
1946.74807250815,3.1927035512053,667033,428
1949.96061955466,NaN,673262,-188
1954.23640373657,3.3634927866818,681263,295
1957.43753296292,3.92841481998025,686910,81
1961.69809338462,4.01617174945376,695419,67
1964.88780479081,3.07963819022264,702739,585
1968.07262284551,NaN,709203,-44
1972.31143503834,NaN,720245,-140
1975.48483527288,3.48369231388764,727931,239
1979.7084237055,NaN,737038,-269
1982.87040611988,3.21415770070532,745022,455
1987.07877079229,3.36341931724375,752726,326
1990.22933538652,2.9701708234126,757167,811
1994.42247629871,3.15859542751728,766491,532
1997.56162307278,4.77442094431092,773329,13
2000.69587649535,2.99949599270255,781093,782
2004.86726917868,3.20483973012761,791711,494
2007.99010478109,3.14262176050969,798527,575
2012.14627370421,2.89369034374658,808706,1033
2015.25769148646,NaN,815029,-322
2019.39863664937,2.84020393115731,825742,1193
2022.49863661147,2.86095066521011,834927,1150
2026.62435801416,2.81514766904625,844785,1293
2029.7129401561,2.89076370541154,850709,1094
2032.79662894655,2.78205775948576,854855,1412
2036.90060212037,2.74632518956209,859824,1542
2039.97287309066,2.77061294179079,864464,1466
2044.06162250427,2.69462915356547,870258,1758
2047.1224756544,2.56369817638003,874445,2388
2051.1960013078,2.54899691551407,889589,2513
2054.24543663777,2.61275332817442,896197,2186
2058.30373853096,2.4987733040281,888301,2817
2061.34175604078,2.38627408396735,894886,3677
2065.38483417376,2.40194233989391,919182,3643
2068.41143386342,2.34883881121318,919667,4119
2071.43314020158,2.35732936531299,914600,4017
2075.45447010569,2.24415881896734,924984,5272
2078.46475862369,2.17019980137697,932859,6304
2082.47086476759,2.16040970916198,933912,6455
2085.46973546543,2.13759859193392,936780,6824
2089.46061784912,2.09350494522411,933775,7529
2092.44807072681,2.07956996469235,934436,7780
2096.42372935029,2.06054784451619,940835,8184
2099.39976440782,2.01137021335619,943070,9187
2102.37090611385,2.00667539179941,943085,9287
2106.32481650846,1.95686790301614,947742,10467
2109.28454039434,1.91527923616451,945529,11492
2113.22322702873,1.9240049087361,944655,11253
2116.17153309445,1.91649224595142,946936,11477
2120.09499596864,1.87197932925722,945988,12703
2123.0318842142,1.85287981910592,948046,13303
2126.94012332817,1.81409277250545,951320,14596
2129.86559375358,1.81991986376435,950034,14382
2132.78617082748,1.81092961504662,949722,14678
2136.67266171259,1.79512965083201,953289,15279
2139.58182096634,1.76147339362331,951721,16483
2143.45308809123,1.75796752190727,954035,16657
2146.35082952482,1.75987748434276,954213,16587
2150.20687288951,1.73426337395277,950487,17526
2153.09319650294,1.71771821489508,948526,18169
2156.93401610741,1.68717893076566,945430,19429
2159.80892190069,1.68146466773645,942965,19635
2162.67893434247,1.67300816710253,940842,19976
2166.49800571807,1.6659438320058,938544,20254
2169.35660033969,1.65619855546914,932716,20585
2173.16044795509,1.65174927823803,928322,20699
2176.00762475655,1.64172365723491,927516,21164
2179.79624861173,1.62782456453441,923217,21751
2182.63200759304,1.61258093022022,922192,22503
2186.40540768801,1.61290672821115,919111,22411
2189.22974884916,1.60429751753848,912851,22704
2192.04919665881,1.59714248333905,905568,22897
2195.80084852491,1.58624636753911,897440,23268
2198.60887851441,1.59194038884454,889041,22750
2202.3453066203,1.57577911736164,878629,23336
2205.14191878963,1.5772252828589,871851,23079
2208.86312313531,1.56411051972565,861714,23510
2211.64831748449,1.5719026907447,854626,22902
2215.35429806996,1.55429207814762,847432,23649
2218.12807459898,1.56552253353503,841611,22887
2221.81883142424,1.56571965631867,834157,22674
2224.5811901331,1.5539693219673,831477,23221
2227.33865549047,1.55956825400532,828809,22850
2231.00766408686,1.55033685655146,822634,23167
2233.75371162407,1.55716989562666,818942,22703
2237.40749646025,1.5469816914,815528,23145
2240.1421261773,1.55238764734231,811151,22736
2243.78068725327,1.5607272260117,805893,22159
2246.50389915016,1.55877491827031,802568,22167
2250.12723646592,1.57151974437445,794517,21310
2252.83903054265,1.57063024137402,789059,21207
2255.54593126789,1.57959176615594,785417,20678
2259.14752035478,1.5945699641079,779087,19816
2261.84300325986,1.58925618309723,772875,19900
2265.42936858654,1.62424545646906,766871,18217
2268.11343367146,1.62395573787409,761690,18106
2271.68457523793,1.65375782043262,751498,16679
2274.35722250269,1.64603346897449,742632,16778
2277.91314030895,1.65450566630585,732889,16238
2280.57436975356,1.67215126336886,723795,15398
2283.23070584667,1.67591447693189,715348,15087
2286.76487542405,1.68720626074327,702657,14439
2289.40979369701,1.71534644588701,695643,13398
2292.92873951418,1.71691659730619,685031,13146
2295.56223996698,1.7213204961199,677484,12870
2299.06596202394,1.7730013724176,666213,11236
2301.68804465658,1.76600297480477,658539,11287
2305.17654295333,1.80161104841388,645715,10196
2307.78720776582,1.8154057327063,636613,9738
2310.3929792268,1.81213668056592,627946,9678
2313.85972929468,1.84318267388671,615380,8830
2316.45408293551,1.83560839761897,605083,8835
2319.90560924318,1.84807458901685,591480,8392
2322.48854506385,1.83045211534145,582240,8603
2325.92484761131,1.87421316217047,568364,7593
2328.49636561183,1.9065689666945,557488,6913
2331.91744439907,1.91238325421489,544324,6660
2334.47754457943,1.91263756605884,533521,6524
2337.88339960647,1.98692231688225,519227,5351
2340.43208196667,1.95908317924474,509285,5596
2342.97587097537,1.97983373049526,497838,5215
2346.35997777354,2.05179933010665,484471,4300
2348.89234896208,2.0225019355052,473509,4496
2352.26123200004,2.03679454532317,459420,4221
2354.78218536842,2.06871885619452,448426,3828
2358.13584464617,2.12249259536956,434877,3280
2360.6453801944,2.16190218985694,424647,2925
2363.98381571193,2.10396276942589,412393,3246
2366.48193344001,2.19541483807374,402883,2569
2368.97515781658,2.17434838267431,392173,2625
2372.29184510525,2.23605921270226,379896,2206
2374.77365166167,2.17704315707133,369960,2461
2378.07511519012,2.32024470483353,357471,1710
2380.54550392638,2.31548591207495,346752,1677
2383.83174369462,2.50011415851107,333708,1055
2386.29071461072,2.23462343770279,324060,1888
2389.56173061876,2.39495610898597,311850,1256
2392.0092837147,2.57214182088607,302058,809
2394.45194345915,2.33253796195766,292467,1360
2397.70121123831,2.79413084761348,280742,451
2400.1324531626,2.22072971762201,271965,1636
